Wavelength (nm),Intensity,Elapsed Time (s),Integration Time (ms)
175.5309600830078,250.25,0.506,50.0
176.13125610351562,229.75,0.506,50.0
176.7315216064453,236.5,0.506,50.0
177.331787109375,221.25,0.506,50.0
177.93199157714844,224.25,0.506,50.0
178.5321807861328,232.0,0.506,50.0
179.13233947753906,229.75,0.506,50.0
179.73248291015625,235.25,0.506,50.0
180.33258056640625,227.5,0.506,50.0
180.93264770507812,229.0,0.506,50.0
181.53269958496094,227.0,0.506,50.0
182.13272094726562,246.75,0.506,50.0
182.7327117919922,233.5,0.506,50.0
183.33267211914062,243.75,0.506,50.0
183.93260192871094,226.0,0.506,50.0
184.53250122070312,232.5,0.506,50.0
185.1323699951172,237.25,0.506,50.0
185.7322235107422,221.25,0.506,50.0
186.33203125,239.25,0.506,50.0
186.9318389892578,232.0,0.506,50.0
187.53160095214844,235.75,0.506,50.0
188.13131713867188,232.5,0.506,50.0
188.7310333251953,241.5,0.506,50.0
189.33071899414062,236.5,0.506,50.0
189.9303741455078,234.5,0.506,50.0
190.52996826171875,232.75,0.506,50.0
191.1295623779297,228.25,0.506,50.0
191.7291259765625,225.25,0.506,50.0
192.3286590576172,231.25,0.506,50.0
192.9281768798828,234.75,0.506,50.0
193.5276336669922,227.25,0.506,50.0
194.12709045410156,243.0,0.506,50.0
194.72650146484375,224.5,0.506,50.0
195.32589721679688,240.5,0.506,50.0
195.9252471923828,232.25,0.506,50.0
196.52459716796875,234.0,0.506,50.0
197.1239013671875,226.0,0.506,50.0
197.72315979003906,237.75,0.506,50.0
198.32240295410156,223.25,0.506,50.0
198.92161560058594,234.5,0.506,50.0
199.5208282470703,247.0,0.506,50.0
200.11997985839844,230.5,0.506,50.0
200.71910095214844,237.25,0.506,50.0
201.31820678710938,231.0,0.506,50.0
201.9172821044922,239.25,0.506,50.0
202.51632690429688,237.5,0.506,50.0
203.11534118652344,230.75,0.506,50.0
203.7143096923828,234.5,0.506,50.0
204.3132781982422,242.0,0.506,50.0
204.91220092773438,230.0,0.506,50.0
205.5111083984375,243.25,0.506,50.0
206.10997009277344,219.25,0.506,50.0
206.7088165283203,229.75,0.506,50.0
207.3076171875,235.5,0.506,50.0
207.90640258789062,236.5,0.506,50.0
208.50515747070312,231.0,0.506,50.0
209.1038818359375,236.5,0.506,50.0
209.7025909423828,235.25,0.506,50.0
210.30123901367188,235.25,0.506,50.0
210.89987182617188,235.25,0.506,50.0
211.4984893798828,237.5,0.506,50.0
212.09706115722656,239.25,0.506,50.0
212.69561767578125,230.0,0.506,50.0
213.29412841796875,240.0,0.506,50.0
213.8926239013672,249.0,0.506,50.0
214.4910888671875,235.75,0.506,50.0
215.0895233154297,232.0,0.506,50.0
215.6879119873047,236.0,0.506,50.0
216.28631591796875,236.0,0.506,50.0
216.8846435546875,248.0,0.506,50.0
217.4829559326172,248.25,0.506,50.0
218.08123779296875,226.0,0.506,50.0
218.6794891357422,243.0,0.506,50.0
219.27772521972656,238.5,0.506,50.0
219.8759307861328,239.0,0.506,50.0
220.47409057617188,240.0,0.506,50.0
221.07225036621094,228.0,0.506,50.0
221.6703338623047,229.0,0.506,50.0
222.26841735839844,229.75,0.506,50.0
222.86647033691406,232.0,0.506,50.0
223.4644775390625,239.5,0.506,50.0
224.06246948242188,229.0,0.506,50.0
224.66043090820312,224.0,0.506,50.0
225.2583770751953,230.75,0.506,50.0
225.85626220703125,244.5,0.506,50.0
226.4541473388672,224.25,0.506,50.0
227.05198669433594,231.5,0.506,50.0
227.64979553222656,234.0,0.506,50.0
228.24757385253906,229.75,0.506,50.0
228.8453369140625,247.75,0.506,50.0
229.4430694580078,226.0,0.506,50.0
230.04075622558594,227.75,0.506,50.0
230.638427734375,226.5,0.506,50.0
231.23606872558594,240.75,0.506,50.0
231.83367919921875,225.75,0.506,50.0
232.43124389648438,240.0,0.506,50.0
233.02879333496094,240.75,0.506,50.0
233.6262969970703,228.75,0.506,50.0
234.2238006591797,222.25,0.506,50.0
234.82125854492188,230.75,0.506,50.0
235.41867065429688,240.0,0.506,50.0
236.01608276367188,238.75,0.506,50.0
236.61343383789062,233.25,0.506,50.0
237.21078491210938,248.0,0.506,50.0
237.80809020996094,239.75,0.506,50.0
238.4053497314453,236.5,0.506,50.0
239.0026092529297,223.25,0.506,50.0
239.59982299804688,234.5,0.506,50.0
240.197021484375,231.5,0.506,50.0
240.79417419433594,239.25,0.506,50.0
241.3913116455078,234.25,0.506,50.0
241.9884033203125,233.5,0.506,50.0
242.58546447753906,236.75,0.506,50.0
243.1824951171875,237.75,0.506,50.0
243.7794952392578,236.5,0.506,50.0
244.37649536132812,228.0,0.506,50.0
244.9734344482422,228.75,0.506,50.0
245.57037353515625,233.25,0.506,50.0
246.16725158691406,232.75,0.506,50.0
246.76409912109375,223.75,0.506,50.0
247.3609161376953,239.5,0.506,50.0
247.9577178955078,226.75,0.506,50.0
248.55447387695312,218.0,0.506,50.0
249.15122985839844,237.25,0.506,50.0
249.7479248046875,222.25,0.506,50.0
250.34461975097656,224.75,0.506,50.0
250.94125366210938,241.75,0.506,50.0
251.53787231445312,236.0,0.506,50.0
252.1344451904297,239.5,0.506,50.0
252.7310028076172,242.5,0.506,50.0
253.3275146484375,237.75,0.506,50.0
253.92401123046875,236.75,0.506,50.0
254.52049255371094,237.0,0.506,50.0
255.11691284179688,225.75,0.506,50.0
255.7133331298828,237.25,0.506,50.0
256.3096923828125,239.25,0.506,50.0
256.9060363769531,226.75,0.506,50.0
257.5023498535156,241.0,0.506,50.0
258.0986328125,228.75,0.506,50.0
258.69488525390625,230.0,0.506,50.0
259.2911376953125,237.0,0.506,50.0
259.88726806640625,231.75,0.506,50.0
260.48345947265625,234.0,0.506,50.0
261.07958984375,241.75,0.506,50.0
261.6756896972656,225.0,0.506,50.0
262.2717590332031,240.0,0.506,50.0
262.8677978515625,234.25,0.506,50.0
263.4637756347656,229.0,0.506,50.0
264.05975341796875,238.25,0.506,50.0
264.6557312011719,232.5,0.506,50.0
265.2516174316406,237.5,0.506,50.0
265.8475036621094,228.5,0.506,50.0
266.443359375,219.0,0.506,50.0
267.0391845703125,242.5,0.506,50.0
267.6349792480469,246.25,0.506,50.0
268.2307434082031,220.75,0.506,50.0
268.8265075683594,243.25,0.506,50.0
269.4221496582031,229.5,0.506,50.0
270.0178527832031,232.75,0.506,50.0
270.6134948730469,240.5,0.506,50.0
271.2091064453125,239.25,0.506,50.0
271.8046569824219,234.0,0.506,50.0
272.40020751953125,236.75,0.506,50.0
272.9957275390625,229.75,0.506,50.0
273.5912170410156,228.75,0.506,50.0
274.1866455078125,225.0,0.506,50.0
274.78204345703125,226.0,0.506,50.0
275.37750244140625,237.75,0.506,50.0
275.97283935546875,234.25,0.506,50.0
276.56817626953125,242.75,0.506,50.0
277.1634521484375,241.5,0.506,50.0
277.75872802734375,222.0,0.506,50.0
278.35394287109375,223.25,0.506,50.0
278.94915771484375,227.0,0.506,50.0
279.5443420410156,230.25,0.506,50.0
280.1394958496094,226.75,0.506,50.0
280.734619140625,230.0,0.506,50.0
281.3296813964844,228.0,0.506,50.0
281.9247131347656,229.0,0.506,50.0
282.51971435546875,231.0,0.506,50.0
283.11474609375,232.75,0.506,50.0
283.709716796875,220.0,0.506,50.0
284.3045959472656,219.0,0.506,50.0
284.8995056152344,222.0,0.506,50.0
285.494384765625,231.5,0.506,50.0
286.0892028808594,226.25,0.506,50.0
286.68402099609375,225.0,0.506,50.0
287.2787780761719,241.0,0.506,50.0
287.8735046386719,227.0,0.506,50.0
288.4682312011719,233.75,0.506,50.0
289.0628967285156,238.5,0.506,50.0
289.65753173828125,235.0,0.506,50.0
290.25213623046875,231.5,0.506,50.0
290.8467102050781,235.5,0.506,50.0
291.4412536621094,232.25,0.506,50.0
292.0357971191406,228.25,0.506,50.0
292.6302795410156,245.5,0.506,50.0
293.2247314453125,224.25,0.506,50.0
293.81915283203125,228.75,0.506,50.0
294.41357421875,237.5,0.506,50.0
295.0079345703125,242.0,0.506,50.0
295.60223388671875,236.75,0.506,50.0
296.196533203125,231.0,0.506,50.0
296.7908020019531,218.75,0.506,50.0
297.3850402832031,229.75,0.506,50.0
297.979248046875,241.0,0.506,50.0
298.5734558105469,226.25,0.506,50.0
299.16754150390625,229.5,0.506,50.0
299.7616882324219,232.75,0.506,50.0
300.3557434082031,230.25,0.506,50.0
300.9497985839844,229.5,0.506,50.0
301.5437927246094,218.0,0.506,50.0
302.1377868652344,224.25,0.506,50.0
302.7317199707031,228.75,0.506,50.0
303.3256530761719,229.5,0.506,50.0
303.9195861816406,223.75,0.506,50.0
304.51336669921875,242.5,0.506,50.0
305.10723876953125,237.0,0.506,50.0
305.7010192871094,229.75,0.506,50.0
306.2947692871094,220.75,0.506,50.0
306.88848876953125,220.25,0.506,50.0
307.482177734375,244.75,0.506,50.0
308.0758972167969,227.5,0.506,50.0
308.66949462890625,228.75,0.506,50.0
309.2630920410156,236.25,0.506,50.0
309.8566589355469,235.0,0.506,50.0
310.4501953125,227.75,0.506,50.0
311.0437316894531,213.75,0.506,50.0
311.63720703125,227.25,0.506,50.0
312.2306213378906,221.5,0.506,50.0
312.82403564453125,242.0,0.506,50.0
313.41741943359375,234.75,0.506,50.0
314.0107421875,221.75,0.506,50.0
314.60406494140625,230.0,0.506,50.0
315.1973571777344,244.75,0.506,50.0
315.7906188964844,240.5,0.506,50.0
316.3838195800781,233.25,0.506,50.0
316.97698974609375,229.25,0.506,50.0
317.5701904296875,234.5,0.506,50.0
318.16326904296875,240.25,0.506,50.0
318.7563781738281,224.75,0.506,50.0
319.34942626953125,221.5,0.506,50.0
319.94244384765625,219.5,0.506,50.0
320.5354309082031,230.75,0.506,50.0
321.12841796875,221.5,0.506,50.0
321.7213439941406,231.25,0.506,50.0
322.314208984375,224.25,0.506,50.0
322.9071044921875,230.25,0.506,50.0
323.49993896484375,228.75,0.506,50.0
324.0927429199219,248.25,0.506,50.0
324.68548583984375,235.5,0.506,50.0
325.27825927734375,223.5,0.506,50.0
325.8709411621094,225.0,0.506,50.0
326.463623046875,241.25,0.506,50.0
327.0562438964844,229.5,0.506,50.0
327.6488342285156,231.75,0.506,50.0
328.2414245605469,230.75,0.506,50.0
328.8339538574219,227.5,0.506,50.0
329.4264831542969,220.5,0.506,50.0
330.0189514160156,235.25,0.506,50.0
330.61138916015625,221.75,0.506,50.0
331.20379638671875,238.75,0.506,50.0
331.7961730957031,225.25,0.506,50.0
332.3885498046875,220.75,0.506,50.0
332.9808044433594,224.0,0.506,50.0
333.5731506347656,222.75,0.506,50.0
334.16534423828125,231.75,0.506,50.0
334.7575988769531,235.0,0.506,50.0
335.34979248046875,236.25,0.506,50.0
335.94189453125,236.0,0.506,50.0
336.5340270996094,226.25,0.506,50.0
337.1260986328125,243.75,0.506,50.0
337.7181701660156,233.0,0.506,50.0
338.3101501464844,237.5,0.506,50.0
338.90216064453125,226.5,0.506,50.0
339.494140625,224.0,0.506,50.0
340.0860595703125,226.75,0.506,50.0
340.67791748046875,238.0,0.506,50.0
341.2698059082031,222.25,0.506,50.0
341.86163330078125,229.75,0.506,50.0
342.4533996582031,221.5,0.506,50.0
343.0451965332031,224.25,0.506,50.0
343.63690185546875,222.5,0.506,50.0
344.22857666015625,231.5,0.506,50.0
344.82025146484375,239.75,0.506,50.0
345.411865234375,230.75,0.506,50.0
346.0034484863281,222.0,0.506,50.0
346.59503173828125,220.25,0.506,50.0
347.18658447265625,235.75,0.506,50.0
347.7780456542969,226.75,0.506,50.0
348.3695373535156,231.25,0.506,50.0
348.9609069824219,232.0,0.506,50.0
349.5523681640625,249.5,0.506,50.0
350.1437072753906,230.25,0.506,50.0
350.73504638671875,227.75,0.506,50.0
351.3263244628906,224.0,0.506,50.0
351.9175720214844,234.5,0.506,50.0
352.5088195800781,230.75,0.506,50.0
353.1000061035156,227.5,0.506,50.0
353.6911926269531,235.25,0.506,50.0
354.2823486328125,224.5,0.506,50.0
354.8734436035156,228.75,0.506,50.0
355.4644775390625,233.25,0.506,50.0
356.0555114746094,237.75,0.506,50.0
356.64654541015625,225.5,0.506,50.0
357.2374572753906,220.75,0.506,50.0
357.82843017578125,225.25,0.506,50.0
358.4193115234375,227.5,0.506,50.0
359.0101623535156,245.25,0.506,50.0
359.60101318359375,229.25,0.506,50.0
360.1918029785156,230.75,0.506,50.0
360.7825622558594,224.0,0.506,50.0
361.373291015625,231.75,0.506,50.0
361.9640197753906,230.0,0.506,50.0
362.5546569824219,223.5,0.506,50.0
363.14532470703125,231.75,0.506,50.0
363.7359313964844,224.0,0.506,50.0
364.32647705078125,234.25,0.506,50.0
364.9170227050781,239.0,0.506,50.0
365.5075378417969,233.75,0.506,50.0
366.0979919433594,236.25,0.506,50.0
366.68841552734375,241.0,0.506,50.0
367.2788391113281,219.5,0.506,50.0
367.8691711425781,229.5,0.506,50.0
368.45953369140625,227.75,0.506,50.0
369.0498352050781,237.5,0.506,50.0
369.64007568359375,221.5,0.506,50.0
370.2303161621094,233.25,0.506,50.0
370.82049560546875,214.25,0.506,50.0
371.4106750488281,223.75,0.506,50.0
372.00079345703125,226.25,0.506,50.0
372.5909118652344,242.75,0.506,50.0
373.1809387207031,223.5,0.506,50.0
373.77099609375,235.5,0.506,50.0
374.3609924316406,229.25,0.506,50.0
374.9509582519531,226.0,0.506,50.0
375.5408935546875,230.25,0.506,50.0
376.1307678222656,227.75,0.506,50.0
376.7206726074219,242.75,0.506,50.0
377.3104553222656,227.0,0.506,50.0
377.9002685546875,229.0,0.506,50.0
378.4900207519531,225.0,0.506,50.0
379.07977294921875,231.75,0.506,50.0
379.66943359375,227.75,0.506,50.0
380.25909423828125,220.5,0.506,50.0
380.8487548828125,225.0,0.506,50.0
381.4383239746094,227.0,0.506,50.0
382.0278625488281,226.75,0.506,50.0
382.61737060546875,242.75,0.506,50.0
383.2069091796875,230.25,0.506,50.0
383.7963562011719,230.0,0.506,50.0
384.3857727050781,236.5,0.506,50.0
384.97515869140625,247.75,0.506,50.0
385.5644836425781,220.25,0.506,50.0
386.1538391113281,226.5,0.506,50.0
386.74310302734375,225.0,0.506,50.0
387.3323669433594,229.25,0.506,50.0
387.9215393066406,224.25,0.506,50.0
388.5107727050781,229.0,0.506,50.0
389.0999450683594,229.25,0.506,50.0
389.68902587890625,234.0,0.506,50.0
390.2781066894531,229.5,0.506,50.0
390.8671569824219,224.0,0.506,50.0
391.4562072753906,229.0,0.506,50.0
392.0451354980469,240.0,0.506,50.0
392.6341247558594,216.0,0.506,50.0
393.2230224609375,236.25,0.506,50.0
393.8118896484375,229.0,0.506,50.0
394.4007263183594,227.0,0.506,50.0
394.9895324707031,240.5,0.506,50.0
395.5783386230469,221.0,0.506,50.0
396.16705322265625,217.5,0.506,50.0
396.7557678222656,242.0,0.506,50.0
397.34442138671875,220.5,0.506,50.0
397.9330749511719,231.25,0.506,50.0
398.52166748046875,237.5,0.506,50.0
399.1102294921875,228.75,0.506,50.0
399.6987609863281,229.0,0.506,50.0
400.2872619628906,219.75,0.506,50.0
400.875732421875,231.0,0.506,50.0
401.4641418457031,226.75,0.506,50.0
402.0525817871094,241.75,0.506,50.0
402.64093017578125,229.5,0.506,50.0
403.229248046875,236.25,0.506,50.0
403.8175354003906,221.5,0.506,50.0
404.4057922363281,226.75,0.506,50.0
404.9939880371094,227.25,0.506,50.0
405.5821838378906,223.75,0.506,50.0
406.1703796386719,233.5,0.506,50.0
406.75848388671875,233.75,0.506,50.0
407.3465881347656,229.75,0.506,50.0
407.93463134765625,229.0,0.506,50.0
408.52264404296875,240.75,0.506,50.0
409.1106262207031,229.25,0.506,50.0
409.69854736328125,235.25,0.506,50.0
410.2864685058594,220.25,0.506,50.0
410.8743591308594,231.0,0.506,50.0
411.4621887207031,226.25,0.506,50.0
412.04998779296875,218.5,0.506,50.0
412.63775634765625,227.5,0.506,50.0
413.22552490234375,233.5,0.506,50.0
413.813232421875,236.0,0.506,50.0
414.40087890625,239.0,0.506,50.0
414.988525390625,223.75,0.506,50.0
415.5761413574219,225.25,0.506,50.0
416.1636657714844,235.25,0.506,50.0
416.751220703125,232.5,0.506,50.0
417.3387145996094,222.5,0.506,50.0
417.9261474609375,229.75,0.506,50.0
418.51361083984375,229.5,0.506,50.0
419.1009826660156,235.5,0.506,50.0
419.6883850097656,224.25,0.506,50.0
420.275634765625,230.75,0.506,50.0
420.86297607421875,229.25,0.506,50.0
421.4501953125,226.75,0.506,50.0
422.0374450683594,220.25,0.506,50.0
422.6246032714844,225.5,0.506,50.0
423.2117614746094,222.25,0.506,50.0
423.7988586425781,228.5,0.506,50.0
424.38592529296875,222.75,0.506,50.0
424.9729919433594,230.0,0.506,50.0
425.5599670410156,230.25,0.506,50.0
426.14697265625,233.0,0.506,50.0
426.7338562011719,233.25,0.506,50.0
427.32080078125,221.25,0.506,50.0
427.90765380859375,229.5,0.506,50.0
428.4944763183594,239.5,0.506,50.0
429.081298828125,238.5,0.506,50.0
429.6679992675781,233.5,0.506,50.0
430.2547607421875,244.0,0.506,50.0
430.8414306640625,222.25,0.506,50.0
431.4281005859375,247.75,0.506,50.0
432.0146789550781,229.75,0.506,50.0
432.601318359375,228.25,0.506,50.0
433.1878662109375,224.5,0.506,50.0
433.77435302734375,227.0,0.506,50.0
434.3608703613281,245.25,0.506,50.0
434.947265625,224.25,0.506,50.0
435.5337219238281,241.0,0.506,50.0
436.1200256347656,237.25,0.506,50.0
436.7063903808594,228.0,0.506,50.0
437.29266357421875,233.5,0.506,50.0
437.87896728515625,225.5,0.506,50.0
438.4652099609375,226.0,0.506,50.0
439.0513916015625,233.0,0.506,50.0
439.6375732421875,227.5,0.506,50.0
440.2236328125,228.75,0.506,50.0
440.80975341796875,225.25,0.506,50.0
441.3957824707031,228.0,0.506,50.0
441.9818115234375,234.0,0.506,50.0
442.5677490234375,230.75,0.506,50.0
443.15374755859375,235.25,0.506,50.0
443.73968505859375,224.0,0.506,50.0
444.32550048828125,232.5,0.506,50.0
444.911376953125,240.0,0.506,50.0
445.4971618652344,249.75,0.506,50.0
446.08294677734375,252.5,0.506,50.0
446.66864013671875,235.0,0.506,50.0
447.2543640136719,220.75,0.506,50.0
447.8400573730469,237.0,0.506,50.0
448.4256286621094,231.75,0.506,50.0
449.0112609863281,237.75,0.506,50.0
449.5967712402344,235.5,0.506,50.0
450.18231201171875,227.25,0.506,50.0
450.76776123046875,238.0,0.506,50.0
451.3532409667969,237.75,0.506,50.0
451.9385986328125,237.25,0.506,50.0
452.5240173339844,237.75,0.506,50.0
453.109375,229.0,0.506,50.0
453.69464111328125,230.5,0.506,50.0
454.2799377441406,230.25,0.506,50.0
454.8651428222656,242.0,0.506,50.0
455.4503479003906,234.25,0.506,50.0
456.03546142578125,235.5,0.506,50.0
456.6206359863281,240.75,0.506,50.0
457.20574951171875,248.5,0.506,50.0
457.7907409667969,239.5,0.506,50.0
458.37579345703125,233.0,0.506,50.0
458.9607238769531,227.75,0.506,50.0
459.54571533203125,237.75,0.506,50.0
460.1305847167969,222.75,0.506,50.0
460.7154846191406,234.25,0.506,50.0
461.30029296875,239.0,0.506,50.0
461.8851318359375,237.75,0.506,50.0
462.46990966796875,245.25,0.506,50.0
463.0545959472656,236.25,0.506,50.0
463.6393127441406,236.0,0.506,50.0
464.2239074707031,237.5,0.506,50.0
464.80859375,238.75,0.506,50.0
465.39312744140625,238.0,0.506,50.0
465.9776611328125,241.0,0.506,50.0
466.5621643066406,235.0,0.506,50.0
467.14666748046875,229.25,0.506,50.0
467.7311096191406,229.75,0.506,50.0
468.31549072265625,236.0,0.506,50.0
468.8998718261719,240.0,0.506,50.0
469.4841613769531,234.0,0.506,50.0
470.0684814453125,230.0,0.506,50.0
470.6527099609375,233.75,0.506,50.0
471.2369384765625,231.0,0.506,50.0
471.8211669921875,237.5,0.506,50.0
472.4052734375,241.5,0.506,50.0
472.9894104003906,238.0,0.506,50.0
473.5734558105469,224.25,0.506,50.0
474.1575012207031,239.0,0.506,50.0
474.7414855957031,234.75,0.506,50.0
475.3254699707031,231.75,0.506,50.0
475.9093933105469,243.5,0.506,50.0
476.4932556152344,232.0,0.506,50.0
477.0771484375,235.0,0.506,50.0
477.66094970703125,237.25,0.506,50.0
478.2447509765625,227.75,0.506,50.0
478.8284912109375,235.25,0.506,50.0
479.4122009277344,236.0,0.506,50.0
479.9958190917969,238.5,0.506,50.0
480.5794982910156,239.0,0.506,50.0
481.1630554199219,237.75,0.506,50.0
481.7466735839844,239.5,0.506,50.0
482.3302001953125,229.0,0.506,50.0
482.9136657714844,228.75,0.506,50.0
483.49713134765625,229.0,0.506,50.0
484.08050537109375,233.75,0.506,50.0
484.6639099121094,239.25,0.506,50.0
485.2472229003906,253.5,0.506,50.0
485.8305358886719,236.75,0.506,50.0
486.4138488769531,235.0,0.506,50.0
486.9970397949219,229.25,0.506,50.0
487.58026123046875,230.0,0.506,50.0
488.16339111328125,239.25,0.506,50.0
488.74652099609375,241.25,0.506,50.0
489.3295593261719,222.0,0.506,50.0
489.91265869140625,235.0,0.506,50.0
490.4956359863281,237.0,0.506,50.0
491.0786437988281,228.0,0.506,50.0
491.6615905761719,236.5,0.506,50.0
492.24444580078125,239.5,0.506,50.0
492.82733154296875,235.5,0.506,50.0
493.4101257324219,227.5,0.506,50.0
493.9929504394531,225.0,0.506,50.0
494.57568359375,247.75,0.506,50.0
495.1584167480469,240.75,0.506,50.0
495.7410888671875,232.75,0.506,50.0
496.32373046875,228.25,0.506,50.0
496.9063415527344,241.0,0.506,50.0
497.4888916015625,231.25,0.506,50.0
498.0714111328125,234.25,0.506,50.0
498.65386962890625,228.75,0.506,50.0
499.2363586425781,237.5,0.506,50.0
499.8187561035156,241.0,0.506,50.0
500.4011535644531,235.0,0.506,50.0
500.9835205078125,233.5,0.506,50.0
501.5657958984375,231.75,0.506,50.0
502.1480712890625,238.75,0.506,50.0
502.73028564453125,237.5,0.506,50.0
503.3125,235.5,0.506,50.0
503.8946228027344,229.75,0.506,50.0
504.4767761230469,239.25,0.506,50.0
505.0588073730469,222.25,0.506,50.0
505.6408996582031,240.25,0.506,50.0
506.2229309082031,227.75,0.506,50.0
506.8048400878906,231.25,0.506,50.0
507.3868103027344,231.5,0.506,50.0
507.96868896484375,237.5,0.506,50.0
508.5505676269531,243.0,0.506,50.0
509.1323547363281,230.25,0.506,50.0
509.7141418457031,234.0,0.506,50.0
510.2959289550781,238.25,0.506,50.0
510.8775939941406,242.75,0.506,50.0
511.45928955078125,240.0,0.506,50.0
512.0408935546875,244.0,0.506,50.0
512.62255859375,234.5,0.506,50.0
513.2040405273438,238.0,0.506,50.0
513.7855834960938,240.75,0.506,50.0
514.3670043945312,253.0,0.506,50.0
514.948486328125,236.0,0.506,50.0
515.5299682617188,237.75,0.506,50.0
516.111328125,234.5,0.506,50.0
516.692626953125,232.75,0.506,50.0
517.2738647460938,239.0,0.506,50.0
517.8551635742188,238.0,0.506,50.0
518.4363403320312,227.25,0.506,50.0
519.017578125,228.25,0.506,50.0
519.5986938476562,222.75,0.506,50.0
520.1798095703125,247.0,0.506,50.0
520.7609252929688,245.5,0.506,50.0
521.3419189453125,215.5,0.506,50.0
521.9229125976562,234.0,0.506,50.0
522.5038452148438,230.25,0.506,50.0
523.0848388671875,233.5,0.506,50.0
523.6656494140625,241.25,0.506,50.0
524.2465209960938,237.75,0.506,50.0
524.8273315429688,236.5,0.506,50.0
525.4080810546875,235.5,0.506,50.0
525.9888305664062,234.75,0.506,50.0
526.5695190429688,231.0,0.506,50.0
527.150146484375,246.25,0.506,50.0
527.7307739257812,243.75,0.506,50.0
528.3113403320312,235.75,0.506,50.0
528.891845703125,234.25,0.506,50.0
529.4723510742188,236.0,0.506,50.0
530.0528564453125,244.0,0.506,50.0
530.6332397460938,242.25,0.506,50.0
531.213623046875,249.25,0.506,50.0
531.7939453125,242.5,0.506,50.0
532.3743286132812,230.0,0.506,50.0
532.95458984375,230.5,0.506,50.0
533.5347900390625,249.0,0.506,50.0
534.114990234375,239.5,0.506,50.0
534.6951904296875,244.75,0.506,50.0
535.2752685546875,234.0,0.506,50.0
535.8553466796875,261.75,0.506,50.0
536.4354248046875,229.5,0.506,50.0
537.015380859375,241.25,0.506,50.0
537.5953979492188,243.75,0.506,50.0
538.1752319335938,245.0,0.506,50.0
538.7551879882812,250.75,0.506,50.0
539.3350830078125,247.25,0.506,50.0
539.9148559570312,234.0,0.506,50.0
540.49462890625,244.75,0.506,50.0
541.0742797851562,246.0,0.506,50.0
541.654052734375,246.75,0.506,50.0
542.233642578125,242.0,0.506,50.0
542.8133544921875,256.0,0.506,50.0
543.3928833007812,249.75,0.506,50.0
543.9724731445312,242.5,0.506,50.0
544.552001953125,243.25,0.506,50.0
545.1314086914062,243.5,0.506,50.0
545.7108764648438,240.0,0.506,50.0
546.2902221679688,232.25,0.506,50.0
546.8695678710938,245.25,0.506,50.0
547.4488525390625,249.5,0.506,50.0
548.0281982421875,233.75,0.506,50.0
548.6074829101562,247.5,0.506,50.0
549.1866455078125,228.5,0.506,50.0
549.7658081054688,230.5,0.506,50.0
550.3449096679688,231.75,0.506,50.0
550.9240112304688,237.25,0.506,50.0
551.5030517578125,224.25,0.506,50.0
552.08203125,237.25,0.506,50.0
552.6610107421875,224.75,0.506,50.0
553.2399291992188,230.75,0.506,50.0
553.81884765625,240.5,0.506,50.0
554.397705078125,242.0,0.506,50.0
554.9765014648438,246.0,0.506,50.0
555.5552368164062,242.75,0.506,50.0
556.1339721679688,245.75,0.506,50.0
556.712646484375,238.25,0.506,50.0
557.2913208007812,254.5,0.506,50.0
557.8699340820312,227.5,0.506,50.0
558.448486328125,235.25,0.506,50.0
559.027099609375,228.75,0.506,50.0
559.6055297851562,245.0,0.506,50.0
560.1840209960938,241.25,0.506,50.0
560.762451171875,233.25,0.506,50.0
561.3408813476562,237.0,0.506,50.0
561.9191284179688,246.75,0.506,50.0
562.4974975585938,241.5,0.506,50.0
563.0758056640625,245.5,0.506,50.0
563.6539916992188,233.0,0.506,50.0
564.232177734375,249.0,0.506,50.0
564.8103637695312,228.25,0.506,50.0
565.388427734375,241.25,0.506,50.0
565.966552734375,234.25,0.506,50.0
566.5445556640625,228.0,0.506,50.0
567.12255859375,245.0,0.506,50.0
567.7005004882812,238.0,0.506,50.0
568.2784423828125,242.5,0.506,50.0
568.8563232421875,245.0,0.506,50.0
569.4341430664062,244.5,0.506,50.0
570.0119018554688,229.5,0.506,50.0
570.5897216796875,222.5,0.506,50.0
571.1674194335938,238.75,0.506,50.0
571.7451171875,232.5,0.506,50.0
572.3226928710938,235.25,0.506,50.0
572.900390625,243.75,0.506,50.0
573.4779663085938,228.25,0.506,50.0
574.055419921875,241.75,0.506,50.0
574.6329345703125,226.25,0.506,50.0
575.2103881835938,242.0,0.506,50.0
575.7877807617188,251.25,0.506,50.0
576.3651123046875,235.0,0.506,50.0
576.9425048828125,233.25,0.506,50.0
577.5198364257812,239.0,0.506,50.0
578.0969848632812,233.5,0.506,50.0
578.6741943359375,241.5,0.506,50.0
579.2514038085938,233.5,0.506,50.0
579.8285522460938,231.5,0.506,50.0
580.4055786132812,237.5,0.506,50.0
580.982666015625,244.25,0.506,50.0
581.5596923828125,236.75,0.506,50.0
582.1366577148438,240.25,0.506,50.0
582.713623046875,235.75,0.506,50.0
583.2904663085938,237.25,0.506,50.0
583.8673095703125,246.5,0.506,50.0
584.4441528320312,243.75,0.506,50.0
585.0209350585938,234.0,0.506,50.0
585.5975952148438,238.75,0.506,50.0
586.17431640625,242.0,0.506,50.0
586.7510375976562,233.25,0.506,50.0
587.32763671875,240.25,0.506,50.0
587.9042358398438,235.5,0.506,50.0
588.480712890625,233.25,0.506,50.0
589.0572509765625,247.5,0.506,50.0
589.6336669921875,228.5,0.506,50.0
590.2101440429688,237.5,0.506,50.0
590.7864379882812,226.25,0.506,50.0
591.3628540039062,245.0,0.506,50.0
591.939208984375,230.25,0.506,50.0
592.5154418945312,240.75,0.506,50.0
593.0916137695312,241.75,0.506,50.0
593.6677856445312,252.0,0.506,50.0
594.2439575195312,233.5,0.506,50.0
594.8200073242188,233.0,0.506,50.0
595.3961181640625,234.25,0.506,50.0
595.9721069335938,225.25,0.506,50.0
596.548095703125,237.0,0.506,50.0
597.1240844726562,241.75,0.506,50.0
597.699951171875,235.5,0.506,50.0
598.2758178710938,235.5,0.506,50.0
598.8516235351562,231.0,0.506,50.0
599.4273681640625,241.5,0.506,50.0
600.0031127929688,247.25,0.506,50.0
600.578857421875,228.25,0.506,50.0
601.154541015625,227.75,0.506,50.0
601.7301025390625,231.0,0.506,50.0
602.3057250976562,230.75,0.506,50.0
602.8812255859375,231.0,0.506,50.0
603.456787109375,229.0,0.506,50.0
604.0321655273438,221.25,0.506,50.0
604.607666015625,242.0,0.506,50.0
605.1829833984375,232.25,0.506,50.0
605.7583618164062,234.0,0.506,50.0
606.3336791992188,219.5,0.506,50.0
606.9088745117188,230.5,0.506,50.0
607.484130859375,228.0,0.506,50.0
608.059326171875,252.5,0.506,50.0
608.6344604492188,234.0,0.506,50.0
609.2095336914062,229.75,0.506,50.0
609.7846069335938,232.25,0.506,50.0
610.359619140625,247.0,0.506,50.0
610.9345703125,241.25,0.506,50.0
611.5095825195312,230.0,0.506,50.0
612.0844116210938,230.75,0.506,50.0
612.6593017578125,231.0,0.506,50.0
613.2340698242188,231.5,0.506,50.0
613.8088989257812,227.5,0.506,50.0
614.3836059570312,237.5,0.506,50.0
614.9583740234375,237.25,0.506,50.0
615.5330200195312,231.0,0.506,50.0
616.1076049804688,232.75,0.506,50.0
616.6821899414062,227.25,0.506,50.0
617.2567138671875,233.75,0.506,50.0
617.8311767578125,239.5,0.506,50.0
618.4056396484375,229.5,0.506,50.0
618.9800415039062,235.25,0.506,50.0
619.554443359375,235.0,0.506,50.0
620.1287231445312,222.75,0.506,50.0
620.7030639648438,227.75,0.506,50.0
621.2772827148438,232.25,0.506,50.0
621.8515014648438,223.0,0.506,50.0
622.4256591796875,243.0,0.506,50.0
622.9998168945312,236.75,0.506,50.0
623.5739135742188,242.25,0.506,50.0
624.14794921875,230.5,0.506,50.0
624.7219848632812,235.0,0.506,50.0
625.2958984375,239.5,0.506,50.0
625.869873046875,238.25,0.506,50.0
626.4437255859375,236.5,0.506,50.0
627.017578125,227.25,0.506,50.0
627.5913696289062,239.0,0.506,50.0
628.1651000976562,232.25,0.506,50.0
628.7388305664062,230.5,0.506,50.0
629.3125,235.75,0.506,50.0
629.8861694335938,233.0,0.506,50.0
630.4597778320312,228.5,0.506,50.0
631.0333251953125,230.0,0.506,50.0
631.6068115234375,237.25,0.506,50.0
632.1803588867188,227.25,0.506,50.0
632.7537231445312,225.5,0.506,50.0
633.3271484375,228.25,0.506,50.0
633.9004516601562,223.5,0.506,50.0
634.4737548828125,241.0,0.506,50.0
635.047119140625,230.0,0.506,50.0
635.6202392578125,226.25,0.506,50.0
636.1934814453125,229.5,0.506,50.0
636.7666625976562,232.25,0.506,50.0
637.3397827148438,228.0,0.506,50.0
637.9127807617188,232.0,0.506,50.0
638.48583984375,227.0,0.506,50.0
639.058837890625,225.25,0.506,50.0
639.6317749023438,231.0,0.506,50.0
640.2046508789062,231.5,0.506,50.0
640.7775268554688,235.0,0.506,50.0
641.350341796875,219.0,0.506,50.0
641.923095703125,218.0,0.506,50.0
642.495849609375,234.5,0.506,50.0
643.0685424804688,239.75,0.506,50.0
643.6411743164062,225.0,0.506,50.0
644.2138671875,229.5,0.506,50.0
644.786376953125,232.0,0.506,50.0
645.3589477539062,227.25,0.506,50.0
645.931396484375,223.75,0.506,50.0
646.5038452148438,236.0,0.506,50.0
647.0762329101562,232.25,0.506,50.0
647.648681640625,227.5,0.506,50.0
648.220947265625,238.0,0.506,50.0
648.793212890625,225.25,0.506,50.0
649.3655395507812,240.5,0.506,50.0
649.9376220703125,223.5,0.506,50.0
650.5098876953125,235.25,0.506,50.0
651.0819091796875,227.5,0.506,50.0
651.654052734375,241.5,0.506,50.0
652.2260131835938,229.75,0.506,50.0
652.7980346679688,232.25,0.506,50.0
653.3699951171875,226.5,0.506,50.0
653.94189453125,226.75,0.506,50.0
654.5137939453125,225.25,0.506,50.0
655.0855712890625,236.25,0.506,50.0
655.6574096679688,228.0,0.506,50.0
656.2290649414062,222.75,0.506,50.0
656.8008422851562,223.75,0.506,50.0
657.3724365234375,214.0,0.506,50.0
657.944091796875,227.5,0.506,50.0
658.5156860351562,226.5,0.506,50.0
659.0872192382812,221.75,0.506,50.0
659.6587524414062,223.75,0.506,50.0
660.2301025390625,227.5,0.506,50.0
660.8015747070312,221.75,0.506,50.0
661.3729248046875,222.75,0.506,50.0
661.9442749023438,239.75,0.506,50.0
662.5155639648438,216.25,0.506,50.0
663.0867309570312,221.75,0.506,50.0
663.657958984375,234.75,0.506,50.0
664.2291259765625,221.75,0.506,50.0
664.8002319335938,232.25,0.506,50.0
665.3712768554688,235.0,0.506,50.0
665.9423217773438,212.75,0.506,50.0
666.5133666992188,233.75,0.506,50.0
667.0842895507812,223.75,0.506,50.0
667.6552124023438,221.0,0.506,50.0
668.22607421875,222.0,0.506,50.0
668.796875,233.25,0.506,50.0
669.36767578125,235.25,0.506,50.0
669.9384155273438,219.75,0.506,50.0
670.5090942382812,229.5,0.506,50.0
671.0797729492188,229.5,0.506,50.0
671.6503295898438,231.0,0.506,50.0
672.220947265625,228.5,0.506,50.0
672.79150390625,227.75,0.506,50.0
673.3619384765625,232.75,0.506,50.0
673.9324340820312,230.75,0.506,50.0
674.5028076171875,226.5,0.506,50.0
675.0731811523438,220.25,0.506,50.0
675.6434936523438,237.75,0.506,50.0
676.2137451171875,223.75,0.506,50.0
676.783935546875,226.25,0.506,50.0
677.3541870117188,217.25,0.506,50.0
677.92431640625,230.0,0.506,50.0
678.494384765625,220.75,0.506,50.0
679.0645141601562,245.25,0.506,50.0
679.6344604492188,236.0,0.506,50.0
680.2045288085938,238.0,0.506,50.0
680.7744750976562,235.0,0.506,50.0
681.3443603515625,217.25,0.506,50.0
681.9141845703125,219.5,0.506,50.0
682.4840087890625,224.0,0.506,50.0
683.0537109375,221.0,0.506,50.0
683.62353515625,225.0,0.506,50.0
684.1932373046875,223.0,0.506,50.0
684.7628173828125,224.75,0.506,50.0
685.3323974609375,230.5,0.506,50.0
685.9019775390625,223.0,0.506,50.0
686.4714965820312,237.5,0.506,50.0
687.0409545898438,227.5,0.506,50.0
687.6103515625,229.25,0.506,50.0
688.1797485351562,227.75,0.506,50.0
688.7490844726562,233.5,0.506,50.0
689.3184204101562,234.75,0.506,50.0
689.8876953125,241.25,0.506,50.0
690.4569091796875,231.0,0.506,50.0
691.0260620117188,237.25,0.506,50.0
691.59521484375,220.75,0.506,50.0
692.164306640625,237.75,0.506,50.0
692.7333374023438,226.0,0.506,50.0
693.3023681640625,223.5,0.506,50.0
693.871337890625,229.5,0.506,50.0
694.4402465820312,228.25,0.506,50.0
695.0090942382812,231.75,0.506,50.0
695.5779418945312,231.5,0.506,50.0
696.146728515625,231.25,0.506,50.0
696.7155151367188,234.75,0.506,50.0
697.2841186523438,219.0,0.506,50.0
697.8528442382812,225.25,0.506,50.0
698.4214477539062,237.75,0.506,50.0
698.989990234375,219.5,0.506,50.0
699.55859375,242.75,0.506,50.0
700.1270141601562,215.5,0.506,50.0
700.6954956054688,228.5,0.506,50.0
701.2638549804688,224.75,0.506,50.0
701.832275390625,228.25,0.506,50.0
702.4005737304688,227.25,0.506,50.0
702.9688720703125,228.25,0.506,50.0
703.537109375,226.25,0.506,50.0
704.1052856445312,242.25,0.506,50.0
704.6734008789062,232.0,0.506,50.0
705.2415161132812,230.5,0.506,50.0
705.8096313476562,230.5,0.506,50.0
706.3776245117188,217.5,0.506,50.0
706.945556640625,234.5,0.506,50.0
707.5135498046875,222.5,0.506,50.0
708.0814208984375,229.75,0.506,50.0
708.6492309570312,231.75,0.506,50.0
709.217041015625,225.75,0.506,50.0
709.7847900390625,226.25,0.506,50.0
710.3525390625,230.75,0.506,50.0
710.920166015625,237.75,0.506,50.0
711.48779296875,232.25,0.506,50.0
712.0553588867188,235.25,0.506,50.0
712.6229858398438,227.5,0.506,50.0
713.1904296875,221.75,0.506,50.0
713.7579345703125,242.75,0.506,50.0
714.3253173828125,222.0,0.506,50.0
714.8927001953125,220.0,0.506,50.0
715.4600219726562,228.25,0.506,50.0
716.0272827148438,229.75,0.506,50.0
716.5946044921875,210.75,0.506,50.0
717.1617431640625,233.5,0.506,50.0
717.7289428710938,236.0,0.506,50.0
718.2959594726562,218.0,0.506,50.0
718.8630981445312,227.25,0.506,50.0
719.4300537109375,225.75,0.506,50.0
719.9970703125,218.75,0.506,50.0
720.5640258789062,226.5,0.506,50.0
721.1309204101562,221.5,0.506,50.0
721.69775390625,233.5,0.506,50.0
722.2645263671875,244.25,0.506,50.0
722.8313598632812,236.75,0.506,50.0
723.3980102539062,222.75,0.506,50.0
723.9647216796875,226.75,0.506,50.0
724.5313110351562,226.25,0.506,50.0
725.0979614257812,236.5,0.506,50.0
725.6644287109375,236.25,0.506,50.0
726.23095703125,226.25,0.506,50.0
726.7974243164062,222.25,0.506,50.0
727.3638305664062,226.0,0.506,50.0
727.93017578125,224.25,0.506,50.0
728.4965209960938,239.0,0.506,50.0
729.0628051757812,221.0,0.506,50.0
729.6290283203125,228.0,0.506,50.0
730.1952514648438,222.0,0.506,50.0
730.761474609375,211.0,0.506,50.0
731.3274536132812,221.0,0.506,50.0
731.8936157226562,227.0,0.506,50.0
732.4595336914062,239.0,0.506,50.0
733.025634765625,235.0,0.506,50.0
733.5914916992188,219.5,0.506,50.0
734.1574096679688,233.5,0.506,50.0
734.7232055664062,226.0,0.506,50.0
735.2890014648438,215.5,0.506,50.0
735.8547973632812,224.5,0.506,50.0
736.4205322265625,220.25,0.506,50.0
736.9862060546875,228.25,0.506,50.0
737.5517578125,222.5,0.506,50.0
738.1173706054688,233.25,0.506,50.0
738.682861328125,229.75,0.506,50.0
739.2484130859375,229.0,0.506,50.0
739.8138427734375,212.5,0.506,50.0
740.3792724609375,221.75,0.506,50.0
740.9446411132812,224.5,0.506,50.0
741.5099487304688,228.75,0.506,50.0
742.0751953125,228.5,0.506,50.0
742.6404418945312,223.75,0.506,50.0
743.2056274414062,228.75,0.506,50.0
743.770751953125,228.75,0.506,50.0
744.3358764648438,223.75,0.506,50.0
744.9009399414062,214.75,0.506,50.0
745.4659423828125,222.75,0.506,50.0
746.0309448242188,236.25,0.506,50.0
746.5958251953125,223.25,0.506,50.0
747.1607055664062,222.75,0.506,50.0
747.7255249023438,217.75,0.506,50.0
748.2903442382812,230.75,0.506,50.0
748.8550415039062,220.5,0.506,50.0
749.4197387695312,221.0,0.506,50.0
749.9844360351562,223.75,0.506,50.0
750.5490112304688,216.75,0.506,50.0
751.1135864257812,222.25,0.506,50.0
751.6781005859375,225.25,0.506,50.0
752.2425537109375,223.0,0.506,50.0
752.8070068359375,210.75,0.506,50.0
753.3713989257812,212.25,0.506,50.0
753.9357299804688,232.5,0.506,50.0
754.5000610351562,223.5,0.506,50.0
755.0643310546875,222.5,0.506,50.0
755.6284790039062,223.75,0.506,50.0
756.1927490234375,221.5,0.506,50.0
756.7567749023438,223.75,0.506,50.0
757.3209228515625,230.75,0.506,50.0
757.8848876953125,230.75,0.506,50.0
758.4489135742188,231.25,0.506,50.0
759.0128784179688,224.25,0.506,50.0
759.5767211914062,221.75,0.506,50.0
760.140625,233.25,0.506,50.0
760.7044067382812,215.25,0.506,50.0
761.2681884765625,223.5,0.506,50.0
761.8318481445312,226.0,0.506,50.0
762.3955688476562,220.75,0.506,50.0
762.959228515625,234.5,0.506,50.0
763.5227661132812,235.5,0.506,50.0
764.0863647460938,220.25,0.506,50.0
764.6497802734375,224.0,0.506,50.0
765.2133178710938,229.25,0.506,50.0
765.7766723632812,231.75,0.506,50.0
766.340087890625,223.25,0.506,50.0
766.9033203125,244.5,0.506,50.0
767.4666137695312,218.0,0.506,50.0
768.0299072265625,231.5,0.506,50.0
768.593017578125,235.75,0.506,50.0
769.15625,221.5,0.506,50.0
769.7192993164062,224.75,0.506,50.0
770.2823486328125,220.5,0.506,50.0
770.8453369140625,216.25,0.506,50.0
771.4083251953125,219.25,0.506,50.0
771.9711303710938,227.75,0.506,50.0
772.5340576171875,237.75,0.506,50.0
773.096923828125,214.75,0.506,50.0
773.65966796875,219.5,0.506,50.0
774.222412109375,242.5,0.506,50.0
774.7850952148438,229.25,0.506,50.0
775.3477783203125,223.75,0.506,50.0
775.9103393554688,220.25,0.506,50.0
776.472900390625,224.25,0.506,50.0
777.035400390625,214.25,0.506,50.0
777.597900390625,231.0,0.506,50.0
778.1602783203125,225.25,0.506,50.0
778.72265625,236.5,0.506,50.0
779.2849731445312,226.0,0.506,50.0
779.8472290039062,221.0,0.506,50.0
780.4095458984375,227.0,0.506,50.0
780.9716796875,232.5,0.506,50.0
781.5338134765625,218.25,0.506,50.0
782.095947265625,228.5,0.506,50.0
782.6580200195312,222.5,0.506,50.0
783.2200317382812,222.0,0.506,50.0
783.781982421875,216.25,0.506,50.0
784.3439331054688,221.5,0.506,50.0
784.90576171875,219.25,0.506,50.0
785.4675903320312,225.25,0.506,50.0
786.0293579101562,223.5,0.506,50.0
786.5911254882812,222.5,0.506,50.0
787.15283203125,228.25,0.506,50.0
787.7144775390625,222.5,0.506,50.0
788.276123046875,226.0,0.506,50.0
788.837646484375,223.75,0.506,50.0
789.399169921875,223.25,0.506,50.0
789.9606323242188,240.5,0.506,50.0
790.5220336914062,233.75,0.506,50.0
791.0834350585938,225.0,0.506,50.0
791.644775390625,222.75,0.506,50.0
792.2061157226562,226.5,0.506,50.0
792.7672729492188,233.25,0.506,50.0
793.3284912109375,219.25,0.506,50.0
793.8895874023438,230.5,0.506,50.0
794.4507446289062,215.25,0.506,50.0
795.0117797851562,223.75,0.506,50.0
795.5728149414062,237.5,0.506,50.0
796.1337890625,230.0,0.506,50.0
796.6947021484375,227.75,0.506,50.0
797.255615234375,233.5,0.506,50.0
797.81640625,226.75,0.506,50.0
798.377197265625,239.75,0.506,50.0
798.9379272460938,221.0,0.506,50.0
799.4985961914062,224.75,0.506,50.0
800.0592651367188,225.75,0.506,50.0
800.619873046875,223.25,0.506,50.0
801.180419921875,214.25,0.506,50.0
801.7409057617188,221.0,0.506,50.0
802.3013916015625,232.25,0.506,50.0
802.8617553710938,225.75,0.506,50.0
803.4221801757812,230.5,0.506,50.0
803.9824829101562,227.5,0.506,50.0
804.542724609375,222.5,0.506,50.0
805.10302734375,231.5,0.506,50.0
805.6632080078125,224.25,0.506,50.0
806.2233276367188,222.75,0.506,50.0
806.7833862304688,239.75,0.506,50.0
807.3434448242188,225.25,0.506,50.0
807.9034423828125,229.75,0.506,50.0
808.4635009765625,218.5,0.506,50.0
809.0233154296875,226.75,0.506,50.0
809.583251953125,220.75,0.506,50.0
810.14306640625,227.0,0.506,50.0
810.7027587890625,221.75,0.506,50.0
811.2625122070312,215.25,0.506,50.0
811.8222045898438,228.75,0.506,50.0
812.3818969726562,223.75,0.506,50.0
812.9414672851562,226.5,0.506,50.0
813.5009765625,219.25,0.506,50.0
814.0604858398438,231.0,0.506,50.0
814.6199340820312,218.75,0.506,50.0
815.1793823242188,223.25,0.506,50.0
815.7387084960938,224.25,0.506,50.0
816.2980346679688,235.0,0.506,50.0
816.8572387695312,222.5,0.506,50.0
817.41650390625,216.75,0.506,50.0
817.9756469726562,221.0,0.506,50.0
818.5347900390625,225.5,0.506,50.0
819.0938720703125,226.5,0.506,50.0
819.6529541015625,208.75,0.506,50.0
820.2119140625,216.75,0.506,50.0
820.7708129882812,229.5,0.506,50.0
821.3297729492188,217.25,0.506,50.0
821.8885498046875,235.75,0.506,50.0
822.4473876953125,226.25,0.506,50.0
823.006103515625,229.75,0.506,50.0
823.5648193359375,229.25,0.506,50.0
824.1235961914062,229.0,0.506,50.0
824.68212890625,227.75,0.506,50.0
825.24072265625,225.0,0.506,50.0
825.7991943359375,228.25,0.506,50.0
826.3577270507812,230.0,0.506,50.0
826.9161376953125,245.5,0.506,50.0
827.4744873046875,223.75,0.506,50.0
828.0328369140625,226.5,0.506,50.0
828.5911254882812,219.0,0.506,50.0
829.1494750976562,224.0,0.506,50.0
829.7075805664062,221.25,0.506,50.0
830.2658081054688,224.75,0.506,50.0
830.8238525390625,224.75,0.506,50.0
831.3818969726562,221.5,0.506,50.0
831.9398803710938,228.0,0.506,50.0
832.4978637695312,227.5,0.506,50.0
833.0557861328125,229.75,0.506,50.0
833.6136474609375,224.25,0.506,50.0
834.1715087890625,223.75,0.506,50.0
834.7293090820312,225.0,0.506,50.0
835.2870483398438,233.25,0.506,50.0
835.8447265625,229.25,0.506,50.0
836.40234375,228.5,0.506,50.0
836.9598999023438,218.75,0.506,50.0
837.5174560546875,218.5,0.506,50.0
838.0750122070312,231.5,0.506,50.0
838.6323852539062,231.0,0.506,50.0
839.1898193359375,219.25,0.506,50.0
839.7471923828125,230.25,0.506,50.0
840.3045043945312,223.25,0.506,50.0
840.8616943359375,225.25,0.506,50.0
841.4189453125,237.0,0.506,50.0
841.9761352539062,218.0,0.506,50.0
842.5332641601562,225.0,0.506,50.0
843.09033203125,235.0,0.506,50.0
843.6473388671875,235.0,0.506,50.0
844.204345703125,214.0,0.506,50.0
844.76123046875,229.5,0.506,50.0
845.3181762695312,231.5,0.506,50.0
845.8749389648438,224.5,0.506,50.0
846.4317626953125,218.5,0.506,50.0
846.9885864257812,230.0,0.506,50.0
847.5452270507812,224.75,0.506,50.0
848.1018676757812,225.25,0.506,50.0
848.658447265625,212.25,0.506,50.0
849.2150268554688,234.25,0.506,50.0
849.771484375,220.0,0.506,50.0
850.3280029296875,218.75,0.506,50.0
850.8843994140625,223.0,0.506,50.0
851.4407958984375,225.0,0.506,50.0
851.9971313476562,228.0,0.506,50.0
852.5533447265625,231.5,0.506,50.0
853.109619140625,233.75,0.506,50.0
853.665771484375,211.5,0.506,50.0
854.2218627929688,222.5,0.506,50.0
854.7779541015625,231.5,0.506,50.0
855.3340454101562,224.75,0.506,50.0
855.8900146484375,225.75,0.506,50.0
856.4459838867188,253.75,0.506,50.0
857.0018920898438,226.25,0.506,50.0
857.5576171875,227.25,0.506,50.0
858.113525390625,229.25,0.506,50.0
858.669189453125,225.75,0.506,50.0
859.2249755859375,234.25,0.506,50.0
859.7805786132812,214.5,0.506,50.0
860.336181640625,241.0,0.506,50.0
860.8917846679688,215.5,0.506,50.0
861.447265625,221.25,0.506,50.0
862.0027465820312,219.5,0.506,50.0
862.5581665039062,212.25,0.506,50.0
863.113525390625,203.5,0.506,50.0
863.6688232421875,231.75,0.506,50.0
864.2241821289062,222.0,0.506,50.0
864.779296875,231.25,0.506,50.0
865.3345336914062,233.0,0.506,50.0
865.8897094726562,223.25,0.506,50.0
866.4447021484375,229.75,0.506,50.0
866.9998168945312,222.5,0.506,50.0
867.5548095703125,220.5,0.506,50.0
868.1097412109375,220.5,0.506,50.0
868.6646118164062,222.5,0.506,50.0
869.219482421875,220.25,0.506,50.0
869.7742309570312,222.25,0.506,50.0
870.3289794921875,220.25,0.506,50.0
870.8837280273438,233.25,0.506,50.0
871.4383544921875,226.75,0.506,50.0
871.9929809570312,224.0,0.506,50.0
872.5474853515625,218.0,0.506,50.0
873.10205078125,233.0,0.506,50.0
873.656494140625,230.0,0.506,50.0
874.2109375,231.25,0.506,50.0
874.7653198242188,232.0,0.506,50.0
875.319580078125,220.0,0.506,50.0
875.8739013671875,225.5,0.506,50.0
876.4281005859375,227.5,0.506,50.0
876.9822998046875,228.0,0.506,50.0
877.536376953125,229.0,0.506,50.0
878.0905151367188,225.5,0.506,50.0
878.64453125,221.25,0.506,50.0
879.198486328125,216.25,0.506,50.0
879.7525024414062,229.0,0.506,50.0
880.3062744140625,223.5,0.506,50.0
880.8601684570312,209.75,0.506,50.0
881.4138793945312,226.0,0.506,50.0
881.9677124023438,214.0,0.506,50.0
882.5213623046875,221.0,0.506,50.0
883.0750122070312,228.75,0.506,50.0
883.628662109375,227.25,0.506,50.0
884.18212890625,216.5,0.506,50.0
884.7356567382812,213.5,0.506,50.0
885.2891235351562,230.0,0.506,50.0
885.842529296875,233.75,0.506,50.0
886.3958740234375,219.5,0.506,50.0
886.94921875,232.75,0.506,50.0
887.50244140625,227.75,0.506,50.0
888.0556640625,226.0,0.506,50.0
888.60888671875,221.25,0.506,50.0
889.1619262695312,212.75,0.506,50.0
889.7150268554688,227.25,0.506,50.0
890.2680053710938,225.75,0.506,50.0
890.8209838867188,231.5,0.506,50.0
891.3739013671875,215.5,0.506,50.0
891.9268188476562,230.25,0.506,50.0
892.4796142578125,235.0,0.506,50.0
893.0323486328125,231.25,0.506,50.0
893.5851440429688,225.75,0.506,50.0
894.1377563476562,226.25,0.506,50.0
894.6904296875,231.0,0.506,50.0
895.2429809570312,221.0,0.506,50.0
895.7955322265625,222.5,0.506,50.0
896.3479614257812,231.25,0.506,50.0
896.9004516601562,215.5,0.506,50.0
897.452880859375,223.5,0.506,50.0
898.0051879882812,242.5,0.506,50.0
898.5574951171875,224.75,0.506,50.0
899.1096801757812,224.0,0.506,50.0
899.6619262695312,224.75,0.506,50.0
900.2140502929688,227.25,0.506,50.0
900.76611328125,230.25,0.506,50.0
901.318115234375,224.75,0.506,50.0
901.8701782226562,236.5,0.506,50.0
902.422119140625,227.25,0.506,50.0
902.9739990234375,223.5,0.506,50.0
903.52587890625,214.0,0.506,50.0
904.07763671875,220.25,0.506,50.0
904.6294555664062,243.25,0.506,50.0
905.18115234375,217.0,0.506,50.0
905.7327880859375,229.25,0.506,50.0
906.284423828125,222.5,0.506,50.0
906.8359985351562,213.5,0.506,50.0
907.3875122070312,217.0,0.506,50.0
907.9389038085938,220.0,0.506,50.0
908.4904174804688,226.5,0.506,50.0
909.0416870117188,224.25,0.506,50.0
909.593017578125,235.75,0.506,50.0
910.144287109375,220.0,0.506,50.0
910.695556640625,216.5,0.506,50.0
911.2467041015625,233.25,0.506,50.0
911.7977905273438,218.5,0.506,50.0
912.348876953125,217.25,0.506,50.0
912.8998413085938,231.5,0.506,50.0
913.4508666992188,225.75,0.506,50.0
914.0017700195312,232.0,0.506,50.0
914.5526733398438,216.75,0.506,50.0
915.1034545898438,220.5,0.506,50.0
915.6542358398438,219.25,0.506,50.0
916.2049560546875,227.75,0.506,50.0
916.755615234375,214.0,0.506,50.0
917.3062744140625,241.75,0.506,50.0
917.8568115234375,234.75,0.506,50.0
918.4073486328125,219.0,0.506,50.0
918.9578247070312,224.25,0.506,50.0
919.50830078125,223.5,0.506,50.0
920.0587158203125,230.25,0.506,50.0
920.6090087890625,222.75,0.506,50.0
921.1593017578125,232.5,0.506,50.0
921.7095336914062,227.0,0.506,50.0
922.2597045898438,228.25,0.506,50.0
922.8097534179688,228.0,0.506,50.0
923.3599243164062,220.25,0.506,50.0
923.909912109375,223.25,0.506,50.0
924.4598999023438,219.0,0.506,50.0
925.0098876953125,209.0,0.506,50.0
925.5597534179688,229.5,0.506,50.0
926.1095581054688,217.5,0.506,50.0
926.6593017578125,227.5,0.506,50.0
927.2091064453125,234.5,0.506,50.0
927.7587890625,217.5,0.506,50.0
928.3084106445312,209.75,0.506,50.0
928.8580322265625,243.25,0.506,50.0
929.4075317382812,221.25,0.506,50.0
929.9570922851562,230.75,0.506,50.0
930.5064697265625,223.75,0.506,50.0
931.055908203125,223.25,0.506,50.0
931.605224609375,232.5,0.506,50.0
932.154541015625,223.5,0.506,50.0
932.7037353515625,223.25,0.506,50.0
933.2529296875,222.75,0.506,50.0
933.8021240234375,230.5,0.506,50.0
934.3511352539062,223.25,0.506,50.0
934.9002075195312,231.25,0.506,50.0
935.44921875,213.5,0.506,50.0
935.9981689453125,223.75,0.506,50.0
936.5470581054688,232.75,0.506,50.0
937.0958862304688,225.5,0.506,50.0
937.6446533203125,238.0,0.506,50.0
938.1934204101562,212.25,0.506,50.0
938.7421264648438,216.25,0.506,50.0
939.2907104492188,231.75,0.506,50.0
939.83935546875,235.75,0.506,50.0
940.3878784179688,223.5,0.506,50.0
940.9364624023438,224.0,0.506,50.0
941.4848022460938,223.0,0.506,50.0
942.0332641601562,224.75,0.506,50.0
942.5816040039062,225.25,0.506,50.0
943.1298217773438,225.75,0.506,50.0
943.6781616210938,221.5,0.506,50.0
944.226318359375,222.5,0.506,50.0
944.7744750976562,219.75,0.506,50.0
945.322509765625,218.5,0.506,50.0
945.87060546875,217.75,0.506,50.0
946.4185791015625,223.75,0.506,50.0
946.966552734375,227.25,0.506,50.0
947.5144653320312,218.75,0.506,50.0
948.062255859375,221.25,0.506,50.0
948.6100463867188,226.25,0.506,50.0
949.1577758789062,224.75,0.506,50.0
949.7055053710938,224.0,0.506,50.0
950.2531127929688,220.25,0.506,50.0
950.8007202148438,212.0,0.506,50.0
951.3482055664062,225.0,0.506,50.0
951.895751953125,237.25,0.506,50.0
952.4432373046875,210.0,0.506,50.0
952.9906005859375,226.0,0.506,50.0
953.5379638671875,222.0,0.506,50.0
954.085205078125,236.5,0.506,50.0
954.6324462890625,222.5,0.506,50.0
955.1796264648438,224.0,0.506,50.0
955.7268676757812,218.5,0.506,50.0
956.2739868164062,225.0,0.506,50.0
956.8209228515625,226.75,0.506,50.0
957.3679809570312,233.75,0.506,50.0
957.9148559570312,225.5,0.506,50.0
958.4617919921875,234.75,0.506,50.0
959.008544921875,223.0,0.506,50.0
959.555419921875,228.75,0.506,50.0
960.1021118164062,233.25,0.506,50.0
960.6488647460938,218.75,0.506,50.0
961.1954345703125,222.75,0.506,50.0
961.7420654296875,229.5,0.506,50.0
962.2886352539062,241.75,0.506,50.0
962.8350219726562,234.0,0.506,50.0
963.3815307617188,221.75,0.506,50.0
963.9278564453125,218.75,0.506,50.0
964.4741821289062,220.75,0.506,50.0
965.0205078125,227.75,0.506,50.0
965.5667114257812,221.5,0.506,50.0
966.1129760742188,221.25,0.506,50.0
966.6590576171875,237.25,0.506,50.0
967.205078125,220.75,0.506,50.0
967.7511596679688,219.75,0.506,50.0
968.297119140625,221.25,0.506,50.0
968.843017578125,239.0,0.506,50.0
969.3889770507812,217.5,0.506,50.0
969.9347534179688,209.25,0.506,50.0
970.4805297851562,231.75,0.506,50.0
971.0262451171875,224.0,0.506,50.0
971.5718994140625,227.5,0.506,50.0
972.1175537109375,232.25,0.506,50.0
972.6630859375,216.0,0.506,50.0
973.2086791992188,224.75,0.506,50.0
973.7540893554688,221.0,0.506,50.0
974.2994995117188,215.75,0.506,50.0
974.8449096679688,210.0,0.506,50.0
975.3901977539062,218.5,0.506,50.0
975.9354858398438,225.75,0.506,50.0
976.480712890625,221.0,0.506,50.0
977.02587890625,224.75,0.506,50.0
977.5709228515625,219.5,0.506,50.0
978.1160278320312,212.25,0.506,50.0
978.6610717773438,231.25,0.506,50.0
979.2059936523438,208.5,0.506,50.0
979.7509155273438,214.25,0.506,50.0
980.2957763671875,220.75,0.506,50.0
980.8406372070312,225.0,0.506,50.0
981.3853149414062,225.5,0.506,50.0
981.9300537109375,233.75,0.506,50.0
982.474609375,224.0,0.506,50.0
983.019287109375,223.25,0.506,50.0
983.5638427734375,226.0,0.506,50.0
984.1083374023438,223.25,0.506,50.0
984.65283203125,231.75,0.506,50.0
985.1971435546875,223.5,0.506,50.0
985.7415161132812,213.5,0.506,50.0
986.2858276367188,225.0,0.506,50.0
986.830078125,228.0,0.506,50.0
987.3742065429688,217.25,0.506,50.0
987.9183959960938,223.75,0.506,50.0
988.4625244140625,231.75,0.506,50.0
989.0065307617188,221.5,0.506,50.0
989.5505981445312,230.5,0.506,50.0
990.0944213867188,221.5,0.506,50.0
990.6383056640625,216.25,0.506,50.0
991.1822509765625,220.75,0.506,50.0
991.7259521484375,229.75,0.506,50.0
992.269775390625,217.25,0.506,50.0
992.8133544921875,226.25,0.506,50.0
993.3569946289062,223.0,0.506,50.0
993.9005737304688,220.75,0.506,50.0
994.4441528320312,228.75,0.506,50.0
994.987548828125,214.0,0.506,50.0
995.531005859375,223.0,0.506,50.0
996.0744018554688,231.5,0.506,50.0
996.6177368164062,207.25,0.506,50.0
997.1610107421875,229.25,0.506,50.0
997.7041625976562,216.0,0.506,50.0
998.247314453125,224.0,0.506,50.0
998.7904663085938,234.25,0.506,50.0
999.3335571289062,215.0,0.506,50.0
999.8764038085938,235.0,0.506,50.0
1000.41943359375,223.0,0.506,50.0
1000.9623413085938,222.0,0.506,50.0
1001.5052490234375,230.5,0.506,50.0
1002.048095703125,223.5,0.506,50.0
1002.5906982421875,212.0,0.506,50.0
1003.1334838867188,222.5,0.506,50.0
1003.6760864257812,212.5,0.506,50.0
1004.21875,224.75,0.506,50.0
1004.7611694335938,210.25,0.506,50.0
1005.3037109375,233.0,0.506,50.0
1005.84619140625,220.25,0.506,50.0
1006.3886108398438,224.25,0.506,50.0
1006.9309692382812,214.75,0.506,50.0
1007.47314453125,235.0,0.506,50.0
1008.0154418945312,218.5,0.506,50.0
1008.5576171875,225.5,0.506,50.0
1009.0997314453125,237.5,0.506,50.0
1009.6417236328125,223.25,0.506,50.0
1010.1837768554688,228.5,0.506,50.0
1010.7257690429688,227.75,0.506,50.0
1011.2677001953125,215.75,0.506,50.0
1011.8096313476562,222.75,0.506,50.0
1012.351318359375,210.5,0.506,50.0
1012.8931274414062,223.75,0.506,50.0
1013.434814453125,221.25,0.506,50.0
1013.9765014648438,211.25,0.506,50.0
1014.5181884765625,220.75,0.506,50.0
1015.0596313476562,220.75,0.506,50.0
1015.6011352539062,219.75,0.506,50.0
1016.1427001953125,217.0,0.506,50.0
1016.68408203125,221.0,0.506,50.0
1017.2252807617188,223.25,0.506,50.0
1017.7666625976562,219.25,0.506,50.0
1018.3079223632812,226.75,0.506,50.0
1018.84912109375,231.0,0.506,50.0
1019.3902587890625,218.5,0.506,50.0
1019.9312744140625,219.0,0.506,50.0
1020.4723510742188,214.5,0.506,50.0
1021.0133056640625,209.25,0.506,50.0
1021.5543212890625,226.0,0.506,50.0
1022.0950927734375,217.75,0.506,50.0
1022.6358642578125,229.5,0.506,50.0
1023.1767578125,218.25,0.506,50.0
1023.7174072265625,216.5,0.506,50.0
1024.258056640625,218.5,0.506,50.0
1024.7987060546875,214.75,0.506,50.0
1025.3392333984375,224.25,0.506,50.0
1025.8797607421875,218.0,0.506,50.0
1026.4202880859375,234.75,0.506,50.0
1026.9605712890625,224.25,0.506,50.0
1027.5009765625,222.25,0.506,50.0
1028.041259765625,222.0,0.506,50.0
1028.58154296875,227.0,0.506,50.0
1029.121826171875,237.25,0.506,50.0
1029.6617431640625,225.5,0.506,50.0
1030.201904296875,220.0,0.506,50.0
1030.741943359375,216.5,0.506,50.0
1031.281982421875,215.0,0.506,50.0
1031.82177734375,229.0,0.506,50.0
1032.36181640625,219.25,0.506,50.0
1032.901611328125,225.0,0.506,50.0
1033.44140625,226.75,0.506,50.0
1033.9810791015625,232.5,0.506,50.0
1034.520751953125,221.0,0.506,50.0
1035.060302734375,217.5,0.506,50.0
1035.5999755859375,218.5,0.506,50.0
1036.1395263671875,211.75,0.506,50.0
1036.678955078125,229.25,0.506,50.0
1037.21826171875,212.0,0.506,50.0
1037.757568359375,216.25,0.506,50.0
1038.296875,223.75,0.506,50.0
1038.836181640625,217.75,0.506,50.0
1039.3753662109375,222.5,0.506,50.0
1039.9144287109375,224.0,0.506,50.0
1040.45361328125,221.5,0.506,50.0
1040.99267578125,231.75,0.506,50.0
1041.5316162109375,241.25,0.506,50.0
1042.0704345703125,226.75,0.506,50.0
1042.6094970703125,226.0,0.506,50.0
1043.1483154296875,209.25,0.506,50.0
1043.68701171875,211.75,0.506,50.0
1044.2257080078125,218.0,0.506,50.0
1044.7642822265625,221.75,0.506,50.0
1045.302978515625,230.0,0.506,50.0
1045.841552734375,217.0,0.506,50.0
1046.380126953125,223.75,0.506,50.0
1046.91845703125,228.5,0.506,50.0
1047.456787109375,232.75,0.506,50.0
1047.9952392578125,226.0,0.506,50.0
1048.5335693359375,229.0,0.506,50.0
1049.0716552734375,224.25,0.506,50.0
1049.6099853515625,220.25,0.506,50.0
1050.1480712890625,227.25,0.506,50.0
1050.6861572265625,219.0,0.506,50.0
1051.2242431640625,230.0,0.506,50.0
1051.7620849609375,225.0,0.506,50.0
1052.300048828125,229.5,0.506,50.0
1052.837890625,221.5,0.506,50.0
1053.3758544921875,238.5,0.506,50.0
1053.9134521484375,229.5,0.506,50.0
1054.451171875,221.0,0.506,50.0
1054.98876953125,241.75,0.506,50.0
1055.5264892578125,227.75,0.506,50.0
1056.06396484375,233.75,0.506,50.0
1056.601318359375,227.25,0.506,50.0
1057.1387939453125,220.0,0.506,50.0
1057.67626953125,234.75,0.506,50.0
1058.2137451171875,222.75,0.506,50.0
1058.7508544921875,233.25,0.506,50.0
1059.2880859375,229.0,0.506,50.0
1059.8253173828125,225.0,0.506,50.0
1060.3623046875,219.25,0.506,50.0
1060.8995361328125,229.25,0.506,50.0
1061.4364013671875,229.5,0.506,50.0
1061.973388671875,213.5,0.506,50.0
1062.5103759765625,221.5,0.506,50.0
1063.0472412109375,232.5,0.506,50.0
1063.583984375,219.5,0.506,50.0
1064.12060546875,229.25,0.506,50.0
1064.6573486328125,228.25,0.506,50.0
1065.1939697265625,219.25,0.506,50.0
1065.730712890625,231.75,0.506,50.0
1066.26708984375,223.25,0.506,50.0
1066.8035888671875,230.5,0.506,50.0
1067.3399658203125,226.5,0.506,50.0
1067.87646484375,228.0,0.506,50.0
1068.412841796875,232.25,0.506,50.0
1068.948974609375,228.0,0.506,50.0
1069.485107421875,229.75,0.506,50.0
1070.0213623046875,215.25,0.506,50.0
1070.5574951171875,224.5,0.506,50.0
1071.0933837890625,217.0,0.506,50.0
1071.6295166015625,231.0,0.506,50.0
1072.1654052734375,208.75,0.506,50.0
1072.701171875,222.5,0.506,50.0
1073.2371826171875,223.25,0.506,50.0
1073.7728271484375,216.0,0.506,50.0
1074.30859375,214.0,0.506,50.0
1074.84423828125,233.75,0.506,50.0
1075.3798828125,224.75,0.506,50.0
1075.915283203125,220.0,0.506,50.0
1076.450927734375,231.0,0.506,50.0
1076.986328125,225.0,0.506,50.0
1077.5218505859375,222.25,0.506,50.0
1078.0572509765625,231.75,0.506,50.0
1078.59228515625,227.0,0.506,50.0
1079.1275634765625,214.5,0.506,50.0
1079.662841796875,223.5,0.506,50.0
1080.1978759765625,232.0,0.506,50.0
1080.73291015625,217.25,0.506,50.0
1081.26806640625,219.0,0.506,50.0
1081.802978515625,202.75,0.506,50.0
1082.337890625,218.25,0.506,50.0
1082.872802734375,224.0,0.506,50.0
1083.407470703125,223.5,0.506,50.0
1083.9422607421875,237.5,0.506,50.0
1084.4769287109375,226.25,0.506,50.0
1085.0115966796875,217.5,0.506,50.0
1085.5462646484375,220.0,0.506,50.0
1086.08056640625,230.25,0.506,50.0
1086.615234375,224.25,0.506,50.0
1087.149658203125,220.0,0.506,50.0
1087.68408203125,219.75,0.506,50.0
1088.21826171875,215.0,0.506,50.0
1088.7525634765625,220.0,0.506,50.0
1089.2867431640625,229.5,0.506,50.0
1089.8209228515625,224.0,0.506,50.0
1090.35498046875,226.75,0.506,50.0
1090.8890380859375,226.0,0.506,50.0
1091.4229736328125,230.5,0.506,50.0
1091.95703125,228.75,0.506,50.0
1092.490966796875,230.0,0.506,50.0
1093.0245361328125,228.25,0.506,50.0
1093.558349609375,218.0,0.506,50.0
1094.092041015625,211.75,0.506,50.0
1094.625732421875,230.75,0.506,50.0
1095.159423828125,214.5,0.506,50.0
1095.69287109375,228.0,0.506,50.0
1096.226318359375,230.5,0.506,50.0
1096.7598876953125,221.75,0.506,50.0
1097.2933349609375,215.25,0.506,50.0
1097.8265380859375,219.75,0.506,50.0
1098.3597412109375,223.0,0.506,50.0
1098.89306640625,222.75,0.506,50.0
1099.42626953125,221.25,0.506,50.0
1099.9593505859375,213.5,0.506,50.0
1100.4923095703125,217.75,0.506,50.0
1101.025390625,221.5,0.506,50.0
1101.558349609375,226.75,0.506,50.0
1102.0911865234375,225.0,0.506,50.0
1102.6240234375,220.25,0.506,50.0
1103.1568603515625,223.25,0.506,50.0
1103.6895751953125,217.75,0.506,50.0
1104.2222900390625,226.75,0.506,50.0
1104.7550048828125,217.0,0.506,50.0
1105.287353515625,221.0,0.506,50.0
1105.8199462890625,215.0,0.506,50.0
1106.352294921875,229.25,0.506,50.0
1106.884765625,221.25,0.506,50.0
1107.4169921875,209.0,0.506,50.0
1107.9493408203125,223.5,0.506,50.0
1108.4815673828125,209.5,0.506,50.0
1109.013916015625,216.5,0.506,50.0
1109.5460205078125,222.5,0.506,50.0
1110.0780029296875,216.0,0.506,50.0
1110.6099853515625,228.25,0.506,50.0
1111.14208984375,226.25,0.506,50.0
1111.6739501953125,218.25,0.506,50.0
1112.205810546875,220.75,0.506,50.0
1112.7374267578125,217.0,0.506,50.0
1113.269287109375,226.5,0.506,50.0
1113.8009033203125,224.0,0.506,50.0
1114.3326416015625,222.0,0.506,50.0
1114.8641357421875,221.25,0.506,50.0
1115.3956298828125,228.0,0.506,50.0
1115.9271240234375,219.25,0.506,50.0
1116.45849609375,224.5,0.506,50.0
1116.9898681640625,228.0,0.506,50.0
1117.5211181640625,223.0,0.506,50.0
1118.0523681640625,233.5,0.506,50.0
1118.5836181640625,232.5,0.506,50.0
1119.1148681640625,217.75,0.506,50.0
1119.6456298828125,216.0,0.506,50.0
1120.1767578125,226.0,0.506,50.0
1120.707763671875,218.25,0.506,50.0
1121.23876953125,226.75,0.506,50.0
1121.7696533203125,219.25,0.506,50.0
1122.30029296875,234.0,0.506,50.0
1122.8310546875,223.0,0.506,50.0
1123.36181640625,219.5,0.506,50.0
1123.8924560546875,217.25,0.506,50.0
1124.4229736328125,208.5,0.506,50.0
1124.953369140625,219.0,0.506,50.0
1125.4840087890625,222.0,0.506,50.0
1126.014404296875,216.75,0.506,50.0
1126.5447998046875,220.0,0.506,50.0
1127.074951171875,214.75,0.506,50.0
1127.605224609375,223.5,0.506,50.0
1128.1353759765625,215.0,0.506,50.0
1128.66552734375,223.75,0.506,50.0
1129.195556640625,218.5,0.506,50.0
1129.7257080078125,220.75,0.506,50.0
1130.255615234375,212.25,0.506,50.0
1130.7855224609375,228.0,0.506,50.0
1131.3154296875,203.25,0.506,50.0
1131.8450927734375,219.25,0.506,50.0
1132.3748779296875,229.25,0.506,50.0
1132.9046630859375,224.0,0.506,50.0
1133.434326171875,221.5,0.506,50.0
1133.9638671875,204.5,0.506,50.0
1134.4932861328125,224.0,0.506,50.0
1135.022705078125,214.0,0.506,50.0
1135.5521240234375,220.5,0.506,50.0
1136.08154296875,220.25,0.506,50.0
1136.61083984375,224.25,0.506,50.0
1137.1400146484375,222.5,0.506,50.0
1137.6693115234375,217.5,0.506,50.0
1138.198486328125,225.75,0.506,50.0
1138.7275390625,231.0,0.506,50.0
1139.2564697265625,222.5,0.506,50.0
1139.785400390625,230.75,0.506,50.0
1140.3143310546875,221.75,0.506,50.0
1140.84326171875,223.75,0.506,50.0
1141.3719482421875,230.0,0.506,50.0
1141.9007568359375,218.25,0.506,50.0
1142.429443359375,221.25,0.506,50.0
1142.9580078125,207.25,0.506,50.0
1143.4866943359375,225.75,0.506,50.0
1144.0150146484375,222.5,0.506,50.0
1144.54345703125,222.5,0.506,50.0
1145.072021484375,228.0,0.506,50.0
1145.600341796875,229.0,0.506,50.0
1146.128662109375,213.75,0.506,50.0
1146.65673828125,225.25,0.506,50.0
1147.1849365234375,219.75,0.506,50.0
1147.713134765625,216.5,0.506,50.0
1148.2412109375,217.5,0.506,50.0
1148.769287109375,219.75,0.506,50.0
1149.297119140625,210.0,0.506,50.0
1149.824951171875,223.25,0.506,50.0
1150.3529052734375,216.25,0.506,50.0
1150.8807373046875,236.75,0.506,50.0
1151.408447265625,216.75,0.506,50.0
1151.93603515625,233.0,0.506,50.0
1152.4637451171875,231.5,0.506,50.0
1152.9912109375,226.0,0.506,50.0
1153.5186767578125,228.25,0.506,50.0
1154.046142578125,225.25,0.506,50.0
1154.573486328125,222.5,0.506,50.0
1155.1009521484375,219.25,0.506,50.0
1155.6282958984375,226.0,0.506,50.0
1156.155517578125,226.0,0.506,50.0
1156.6826171875,226.0,0.506,50.0
1157.2095947265625,213.25,0.506,50.0
1157.7366943359375,222.5,0.506,50.0
1158.263671875,221.5,0.506,50.0
1158.79052734375,205.0,0.506,50.0
1159.3175048828125,218.5,0.506,50.0
1159.84423828125,211.0,0.506,50.0
1160.37109375,207.75,0.506,50.0
1160.8978271484375,212.25,0.506,50.0
1161.4244384765625,227.0,0.506,50.0
1161.950927734375,220.25,0.506,50.0
1162.4776611328125,224.0,0.506,50.0
1163.004150390625,220.25,0.506,50.0
1163.5303955078125,223.5,0.506,50.0
1164.056884765625,222.5,0.506,50.0
1164.5831298828125,218.0,0.506,50.0
1165.109375,219.5,0.506,50.0
1165.6356201171875,212.0,0.506,50.0
1166.1617431640625,205.25,0.506,50.0
1166.6878662109375,215.75,0.506,50.0
1167.2138671875,228.5,0.506,50.0
1167.7398681640625,228.25,0.506,50.0
1168.2657470703125,225.5,0.506,50.0
1168.79150390625,223.5,0.506,50.0
1169.3175048828125,218.25,0.506,50.0
1169.84326171875,224.25,0.506,50.0
1170.368896484375,229.5,0.506,50.0
1170.8944091796875,211.75,0.506,50.0
1171.4200439453125,220.25,0.506,50.0
1171.945556640625,227.0,0.506,50.0
1172.4710693359375,220.0,0.506,50.0
1172.9964599609375,232.75,0.506,50.0
1173.521728515625,216.25,0.506,50.0
1174.0469970703125,203.5,0.506,50.0
1174.572265625,213.5,0.506,50.0
1175.0975341796875,217.0,0.506,50.0
1175.6224365234375,227.25,0.506,50.0
1176.147705078125,218.5,0.506,50.0
1176.6727294921875,231.75,0.506,50.0
1177.1976318359375,206.25,0.506,50.0
1177.7225341796875,223.5,0.506,50.0
1178.247314453125,219.5,0.506,50.0
1178.7720947265625,221.25,0.506,50.0
1179.296875,222.75,0.506,50.0
1179.821533203125,222.5,0.506,50.0
1180.3460693359375,211.75,0.506,50.0
1180.87060546875,224.75,0.506,50.0
1181.3951416015625,230.0,0.506,50.0
1181.9195556640625,223.75,0.506,50.0
1182.4439697265625,231.25,0.506,50.0
1182.9681396484375,225.75,0.506,50.0
1183.492431640625,222.25,0.506,50.0
1184.0167236328125,216.0,0.506,50.0
1184.5408935546875,220.25,0.506,50.0
1185.0648193359375,214.5,0.506,50.0
1185.5888671875,220.25,0.506,50.0
1186.1129150390625,223.5,0.506,50.0
1186.6368408203125,210.5,0.506,50.0
1187.1607666015625,228.0,0.506,50.0
1187.6844482421875,211.75,0.506,50.0
1188.208251953125,221.0,0.506,50.0
1188.7318115234375,231.75,0.506,50.0
1189.255615234375,215.75,0.506,50.0
1189.779052734375,218.5,0.506,50.0
1190.3026123046875,208.75,0.506,50.0
1190.8260498046875,225.5,0.506,50.0
1191.3494873046875,221.75,0.506,50.0
1191.8729248046875,210.25,0.506,50.0
1192.3961181640625,220.75,0.506,50.0
1192.9193115234375,222.25,0.506,50.0
1193.4425048828125,218.75,0.506,50.0
1193.965576171875,224.25,0.506,50.0
1194.4886474609375,212.0,0.506,50.0
1195.0115966796875,218.25,0.506,50.0
1195.5345458984375,228.5,0.506,50.0
1196.0574951171875,225.25,0.506,50.0
1196.580322265625,221.0,0.506,50.0
1197.10302734375,224.5,0.506,50.0
1197.625732421875,226.0,0.506,50.0
1198.1483154296875,232.75,0.506,50.0
1198.6708984375,230.5,0.506,50.0
1199.1934814453125,227.5,0.506,50.0
1199.7159423828125,219.25,0.506,50.0
1200.2384033203125,219.0,0.506,50.0
1200.7607421875,223.75,0.506,50.0
1201.2830810546875,231.25,0.506,50.0
1201.80517578125,219.75,0.506,50.0
1202.3275146484375,219.5,0.506,50.0
1202.849609375,218.5,0.506,50.0
1203.37158203125,215.25,0.506,50.0
1203.8936767578125,214.5,0.506,50.0
1204.41552734375,225.25,0.506,50.0
1204.9375,223.25,0.506,50.0
1205.4593505859375,222.25,0.506,50.0
1205.981201171875,213.5,0.506,50.0
1206.5028076171875,213.25,0.506,50.0
1207.0244140625,226.0,0.506,50.0
1207.546142578125,226.5,0.506,50.0
1208.0677490234375,231.5,0.506,50.0
1208.5892333984375,224.75,0.506,50.0
1209.1104736328125,220.5,0.506,50.0
1209.6319580078125,228.0,0.506,50.0
1210.1533203125,224.75,0.506,50.0
1210.674560546875,219.25,0.506,50.0
1211.1956787109375,222.25,0.506,50.0
1211.716796875,224.25,0.506,50.0
1212.238037109375,223.5,0.506,50.0
1212.759033203125,220.75,0.506,50.0
1213.2799072265625,222.0,0.506,50.0
1213.80078125,218.5,0.506,50.0
1214.3216552734375,215.0,0.506,50.0
1214.8424072265625,230.25,0.506,50.0
1215.3631591796875,212.75,0.506,50.0
1215.8837890625,205.0,0.506,50.0
1216.4044189453125,223.75,0.506,50.0
1216.925048828125,222.0,0.506,50.0
1217.4456787109375,208.0,0.506,50.0
1217.966064453125,227.75,0.506,50.0
1218.486328125,228.5,0.506,50.0
1219.0067138671875,221.75,0.506,50.0
1219.5269775390625,226.0,0.506,50.0
1220.0472412109375,216.0,0.506,50.0
1220.5673828125,224.75,0.506,50.0
1221.08740234375,218.25,0.506,50.0
1221.607421875,214.75,0.506,50.0
1222.12744140625,224.0,0.506,50.0
1222.6473388671875,222.5,0.506,50.0
1223.1671142578125,212.25,0.506,50.0
1223.68701171875,215.0,0.506,50.0
1224.2066650390625,222.25,0.506,50.0
1224.7264404296875,225.5,0.506,50.0
1225.24609375,226.75,0.506,50.0
1225.765625,225.0,0.506,50.0
1226.28515625,219.5,0.506,50.0
1226.804443359375,225.5,0.506,50.0
1227.323974609375,214.75,0.506,50.0
1227.8431396484375,234.25,0.506,50.0
1228.3624267578125,228.0,0.506,50.0
1228.8817138671875,227.75,0.506,50.0
1229.40087890625,219.75,0.506,50.0
1229.919921875,226.25,0.506,50.0
1230.43896484375,223.0,0.506,50.0
1230.9578857421875,217.0,0.506,50.0
1231.4769287109375,234.25,0.506,50.0
1231.995849609375,220.75,0.506,50.0
1232.5145263671875,226.5,0.506,50.0
1233.033203125,219.0,0.506,50.0
1233.552001953125,219.0,0.506,50.0
1234.070556640625,220.0,0.506,50.0
1234.5892333984375,227.25,0.506,50.0
1235.107666015625,219.75,0.506,50.0
1235.6260986328125,225.0,0.506,50.0
1236.1444091796875,207.0,0.506,50.0
1236.662841796875,221.0,0.506,50.0
1237.1810302734375,225.5,0.506,50.0
1237.6993408203125,220.75,0.506,50.0
1238.217529296875,216.5,0.506,50.0
1238.735595703125,218.0,0.506,50.0
1239.2535400390625,218.0,0.506,50.0
1239.771484375,223.25,0.506,50.0
1240.2894287109375,225.75,0.506,50.0
1240.807373046875,222.25,0.506,50.0
1241.3251953125,220.5,0.506,50.0
1241.8427734375,224.0,0.506,50.0
1242.3604736328125,234.0,0.506,50.0
1242.878173828125,220.75,0.506,50.0
1243.395751953125,220.0,0.506,50.0
1243.9132080078125,210.25,0.506,50.0
1244.4305419921875,223.5,0.506,50.0
1244.947998046875,234.0,0.506,50.0
1245.46533203125,228.25,0.506,50.0
1245.982666015625,216.5,0.506,50.0
1246.4998779296875,213.0,0.506,50.0
1247.016845703125,217.75,0.506,50.0
1247.5340576171875,217.5,0.506,50.0
1248.051025390625,224.0,0.506,50.0
1248.5679931640625,240.25,0.506,50.0
1249.0848388671875,218.0,0.506,50.0
1249.601806640625,229.25,0.506,50.0
1250.1185302734375,214.25,0.506,50.0
1250.63525390625,216.0,0.506,50.0
1251.1519775390625,215.0,0.506,50.0
1251.66845703125,210.0,0.506,50.0
1252.1851806640625,228.5,0.506,50.0
1252.70166015625,227.0,0.506,50.0
1253.2181396484375,216.0,0.506,50.0
1253.734375,219.5,0.506,50.0
1254.250732421875,228.5,0.506,50.0
1254.7669677734375,220.75,0.506,50.0
1255.283203125,221.5,0.506,50.0
1255.79931640625,211.5,0.506,50.0
1256.3153076171875,217.75,0.506,50.0
1256.831298828125,218.75,0.506,50.0
1257.347412109375,224.75,0.506,50.0
1257.86328125,220.75,0.506,50.0
1258.3790283203125,219.25,0.506,50.0
1258.8948974609375,226.75,0.506,50.0
1259.4105224609375,218.75,0.506,50.0
1259.92626953125,216.25,0.506,50.0
1260.44189453125,218.25,0.506,50.0
1260.957275390625,211.5,0.506,50.0
1261.472900390625,230.75,0.506,50.0
1261.98828125,213.75,0.506,50.0
1262.503662109375,207.5,0.506,50.0
1263.018798828125,215.5,0.506,50.0
1263.5341796875,221.25,0.506,50.0
1264.04931640625,221.75,0.506,50.0
1264.564453125,217.75,0.506,50.0
1265.0794677734375,218.75,0.506,50.0
1265.594482421875,226.25,0.506,50.0
1266.109375,218.0,0.506,50.0
1266.624267578125,221.75,0.506,50.0
1267.13916015625,214.75,0.506,50.0
1267.6539306640625,215.75,0.506,50.0
1268.1685791015625,225.5,0.506,50.0
1268.6832275390625,205.5,0.506,50.0
1269.1978759765625,223.75,0.506,50.0
1269.7122802734375,224.25,0.506,50.0
1270.226806640625,221.75,0.506,50.0
1270.7412109375,213.75,0.506,50.0
1271.2554931640625,227.75,0.506,50.0
1271.769775390625,223.25,0.506,50.0
1272.2840576171875,225.5,0.506,50.0
1272.798095703125,222.25,0.506,50.0
1273.312255859375,219.25,0.506,50.0
1273.8262939453125,215.75,0.506,50.0
1274.3402099609375,224.5,0.506,50.0
1274.8541259765625,227.25,0.506,50.0
1275.3680419921875,229.5,0.506,50.0
1275.8818359375,220.5,0.506,50.0
1276.3956298828125,220.25,0.506,50.0
1276.9093017578125,218.25,0.506,50.0
1277.4228515625,225.0,0.506,50.0
1277.9364013671875,218.75,0.506,50.0
1278.449951171875,219.25,0.506,50.0
1278.96337890625,221.0,0.506,50.0
1279.4766845703125,218.5,0.506,50.0
1279.989990234375,223.5,0.506,50.0
1280.5032958984375,215.75,0.506,50.0
1281.0166015625,216.0,0.506,50.0
1281.5296630859375,209.5,0.506,50.0
1282.042724609375,227.75,0.506,50.0
1282.5557861328125,228.25,0.506,50.0
1283.068603515625,221.25,0.506,50.0
1283.5816650390625,220.5,0.506,50.0
1284.0943603515625,227.25,0.506,50.0
1284.607177734375,225.75,0.506,50.0
1285.1197509765625,222.5,0.506,50.0
1285.632568359375,229.0,0.506,50.0
1286.1451416015625,213.75,0.506,50.0
1286.6575927734375,211.5,0.506,50.0
1287.1700439453125,225.75,0.506,50.0
1287.6824951171875,212.75,0.506,50.0
1288.1949462890625,223.0,0.506,50.0
1288.707275390625,225.25,0.506,50.0
1289.2193603515625,221.25,0.506,50.0
1289.7314453125,228.75,0.506,50.0
1290.24365234375,204.75,0.506,50.0
1290.7557373046875,229.5,0.506,50.0
1291.2677001953125,216.0,0.506,50.0
1291.779541015625,222.0,0.506,50.0
1292.29150390625,222.25,0.506,50.0
1292.80322265625,219.75,0.506,50.0
1293.3150634765625,215.75,0.506,50.0
1293.82666015625,218.5,0.506,50.0
1294.3382568359375,228.0,0.506,50.0
1294.849853515625,218.5,0.506,50.0
1295.3614501953125,216.75,0.506,50.0
1295.872802734375,213.25,0.506,50.0
1296.3841552734375,220.75,0.506,50.0
1296.8955078125,215.5,0.506,50.0
1297.40673828125,222.75,0.506,50.0
1297.91796875,227.75,0.506,50.0
1298.428955078125,217.0,0.506,50.0
1298.940185546875,222.75,0.506,50.0
1299.451171875,222.25,0.506,50.0
1299.962158203125,222.25,0.506,50.0
1300.472900390625,214.25,0.506,50.0
1300.9837646484375,212.0,0.506,50.0
1301.4945068359375,227.25,0.506,50.0
1302.00537109375,224.0,0.506,50.0
1302.515869140625,219.0,0.506,50.0
1303.0263671875,227.0,0.506,50.0
1303.5369873046875,217.0,0.506,50.0
1304.04736328125,226.0,0.506,50.0
1304.557861328125,205.0,0.506,50.0
1305.068115234375,217.0,0.506,50.0
1305.578369140625,213.0,0.506,50.0
1306.0887451171875,224.5,0.506,50.0
1306.598876953125,223.5,0.506,50.0
1307.10888671875,224.5,0.506,50.0
1307.618896484375,229.5,0.506,50.0
1308.12890625,213.5,0.506,50.0
1308.6387939453125,224.25,0.506,50.0
1309.148681640625,221.75,0.506,50.0
1309.658447265625,228.25,0.506,50.0
1310.1680908203125,223.75,0.506,50.0
1310.6778564453125,220.25,0.506,50.0
1311.1875,218.5,0.506,50.0
1311.697021484375,220.25,0.506,50.0
1312.2064208984375,212.5,0.506,50.0
1312.7158203125,219.75,0.506,50.0
1313.2252197265625,224.5,0.506,50.0
1313.7344970703125,228.75,0.506,50.0
1314.243896484375,219.5,0.506,50.0
1314.7529296875,214.75,0.506,50.0
1315.2620849609375,236.75,0.506,50.0
1315.7711181640625,234.75,0.506,50.0
1316.280029296875,215.75,0.506,50.0
1316.7889404296875,234.75,0.506,50.0
1317.2978515625,236.25,0.506,50.0
1317.8067626953125,213.25,0.506,50.0
1318.3154296875,221.25,0.506,50.0
1318.82421875,219.75,0.506,50.0
1319.3326416015625,206.75,0.506,50.0
1319.84130859375,210.0,0.506,50.0
1320.349853515625,216.5,0.506,50.0
1320.858154296875,222.0,0.506,50.0
1321.3665771484375,226.25,0.506,50.0
1321.8748779296875,229.25,0.506,50.0
